# === DATA DESCRIPTION FILE ======================================================
#
# CAUTION - Investigational device.
# Limited by Federal Law to investigational use.
#
#
# CLINICAL TRYOUT             Research image export tool     V4.2
#
# === GENERAL INFORMATION ========================================================
#
.    Protocol name                      :   WIP 3D FLAIR Sag UMich SENSE
.    Series Type                        :   Image   MRSERIES
.    Acquisition nr                     :   4
.    Reconstruction nr                  :   1
.    Scan Duration [sec]                :   528
.    Max. number of cardiac phases      :   1
.    Max. number of echoes              :   1
.    Max. number of slices/locations    :   327
.    Max. number of dynamics            :   1
.    Max. number of mixes               :   1
.    Patient position                   :   Head First Supine
.    Preparation direction              :   Anterior-Posterior
.    Technique                          :   TIR
.    Scan resolution  (x, y)            :   216  220
.    Scan mode                          :   3D
.    Repetition time [ms]               :   8000.000  
.    FOV (ap,fh,rl) [mm]                :   240.000  200.000  179.850
.    Water Fat shift [pixels]           :   0.858
.    Angulation midslice(ap,fh,rl)[degr]:   0.315  4.009  0.000
.    Off Centre midslice(ap,fh,rl) [mm] :   -10.790  3.992  -0.925
.    Flow compensation <0=no 1=yes> ?   :   1
.    Presaturation     <0=no 1=yes> ?   :   0
.    Phase encoding velocity [cm/sec]   :   0.000000  0.000000  0.000000
.    MTC               <0=no 1=yes> ?   :   0
.    SPIR              <0=no 1=yes> ?   :   1
.    EPI factor        <0,1=no EPI>     :   1
.    Dynamic scan      <0=no 1=yes> ?   :   0
.    Diffusion         <0=no 1=yes> ?   :   0
.    Diffusion echo time [ms]           :   0.0000
.    Max. number of diffusion values    :   1
.    Max. number of gradient orients    :   1
.    Number of label types   <0=no ASL> :   0
#
# === PIXEL VALUES =============================================================
#  PV = pixel value in REC file, FP = floating point value, DV = displayed value on console
#  RS = rescale slope,           RI = rescale intercept,    SS = scale slope
#  DV = PV * RS + RI             FP = DV / (RS * SS)
#
# === IMAGE INFORMATION DEFINITION =============================================
#  The rest of this file contains ONE line per image, this line contains the following information:
#
#  slice number                             (integer)
#  echo number                              (integer)
#  dynamic scan number                      (integer)
#  cardiac phase number                     (integer)
#  image_type_mr                            (integer)
#  scanning sequence                        (integer)
#  index in REC file (in images)            (integer)
#  image pixel size (in bits)               (integer)
#  scan percentage                          (integer)
#  recon resolution (x y)                   (2*integer)
#  rescale intercept                        (float)
#  rescale slope                            (float)
#  scale slope                              (float)
#  window center                            (integer)
#  window width                             (integer)
#  image angulation (ap,fh,rl in degrees )  (3*float)
#  image offcentre (ap,fh,rl in mm )        (3*float)
#  slice thickness (in mm )                 (float)
#  slice gap (in mm )                       (float)
#  image_display_orientation                (integer)
#  slice orientation ( TRA/SAG/COR )        (integer)
#  fmri_status_indication                   (integer)
#  image_type_ed_es  (end diast/end syst)   (integer)
#  pixel spacing (x,y) (in mm)              (2*float)
#  echo_time                                (float)
#  dyn_scan_begin_time                      (float)
#  trigger_time                             (float)
#  diffusion_b_factor                       (float)
#  number of averages                       (integer)
#  image_flip_angle (in degrees)            (float)
#  cardiac frequency   (bpm)                (integer)
#  minimum RR-interval (in ms)              (integer)
#  maximum RR-interval (in ms)              (integer)
#  TURBO factor  <0=no turbo>               (integer)
#  Inversion delay (in ms)                  (float)
#  diffusion b value number    (imagekey!)  (integer)
#  gradient orientation number (imagekey!)  (integer)
#  contrast type                            (string)
#  diffusion anisotropy type                (string)
#  diffusion (ap, fh, rl)                   (3*float)
#  label type (ASL)            (imagekey!)  (integer)
#
# === IMAGE INFORMATION ==========================================================
#  sl ec  dyn ph ty    idx pix scan% rec size                (re)scale              window        angulation              offcentre        thick   gap   info      spacing     echo     dtime   ttime    diff  avg  flip    freq   RR-int  turbo delay b grad cont anis         diffusion       L.ty

  1   1    1  1 0 0     0  16    79  576  576     0.00000   5.77998 1.33146e-003    17    30   0.31   4.01   0.00   -4.52    3.50   88.50  1.100 -0.550 0 2 0 2  0.417  0.417 331.30    0.00     0.00    0.00   1   90.00     0    0    0   110 2400.0  1   1    8    0   0.000    0.000    0.000  1
  2   1    1  1 0 0     1  16    79  576  576     0.00000   5.77998 1.33146e-003    22    38   0.31   4.01   0.00   -4.56    3.50   87.96  1.100 -0.550 0 2 0 2  0.417  0.417 331.30    0.00     0.00    0.00   1   90.00     0    0    0   110 2400.0  1   1    8    0   0.000    0.000    0.000  1
  3   1    1  1 0 0     2  16    79  576  576     0.00000   5.77998 1.33146e-003    21    36   0.31   4.01   0.00   -4.60    3.51   87.41  1.100 -0.550 0 2 0 2  0.417  0.417 331.30    0.00     0.00    0.00   1   90.00     0    0    0   110 2400.0  1   1    8    0   0.000    0.000    0.000  1
  4   1    1  1 0 0     3  16    79  576  576     0.00000   5.77998 1.33146e-003    22    38   0.31   4.01   0.00   -4.64    3.51   86.86  1.100 -0.550 0 2 0 2  0.417  0.417 331.30    0.00     0.00    0.00   1   90.00     0    0    0   110 2400.0  1   1    8    0   0.000    0.000    0.000  1
  5   1    1  1 0 0     4  16    79  576  576     0.00000   5.77998 1.33146e-003    22    39   0.31   4.01   0.00   -4.68    3.51   86.31  1.100 -0.550 0 2 0 2  0.417  0.417 331.30    0.00     0.00    0.00   1   90.00     0    0    0   110 2400.0  1   1    8    0   0.000    0.000    0.000  1
  6   1    1  1 0 0     5  16    79  576  576     0.00000   5.77998 1.33146e-003    23    39   0.31   4.01   0.00   -4.71    3.52   85.76  1.100 -0.550 0 2 0 2  0.417  0.417 331.30    0.00     0.00    0.00   1   90.00     0    0    0   110 2400.0  1   1    8    0   0.000    0.000    0.000  1
  7   1    1  1 0 0     6  16    79  576  576     0.00000   5.77998 1.33146e-003    20    35   0.31   4.01   0.00   -4.75    3.52   85.21  1.100 -0.550 0 2 0 2  0.417  0.417 331.30    0.00     0.00    0.00   1   90.00     0    0    0   110 2400.0  1   1    8    0   0.000    0.000    0.000  1
  8   1    1  1 0 0     7  16    79  576  576     0.00000   5.77998 1.33146e-003    21    36   0.31   4.01   0.00   -4.79    3.52   84.66  1.100 -0.550 0 2 0 2  0.417  0.417 331.30    0.00     0.00    0.00   1   90.00     0    0    0   110 2400.0  1   1    8    0   0.000    0.000    0.000  1
  9   1    1  1 0 0     8  16    79  576  576     0.00000   5.77998 1.33146e-003    19    33   0.31   4.01   0.00   -4.83    3.52   84.12  1.100 -0.550 0 2 0 2  0.417  0.417 331.30    0.00     0.00    0.00   1   90.00     0    0    0   110 2400.0  1   1    8    0   0.000    0.000    0.000  1
 10   1    1  1 0 0     9  16    79  576  576     0.00000   5.77998 1.33146e-003    17    29   0.31   4.01   0.00   -4.87    3.53   83.57  1.100 -0.550 0 2 0 2  0.417  0.417 331.30    0.00     0.00    0.00   1   90.00     0    0    0   110 2400.0  1   1    8    0   0.000    0.000    0.000  1
 11   1    1  1 0 0    10  16    79  576  576     0.00000   5.77998 1.33146e-003    16    28   0.31   4.01   0.00   -4.91    3.53   83.02  1.100 -0.550 0 2 0 2  0.417  0.417 331.30    0.00     0.00    0.00   1   90.00     0    0    0   110 2400.0  1   1    8    0   0.000    0.000    0.000  1
 12   1    1  1 0 0    11  16    79  576  576     0.00000   5.77998 1.33146e-003    19    33   0.31   4.01   0.00   -4.94    3.53   82.47  1.100 -0.550 0 2 0 2  0.417  0.417 331.30    0.00     0.00    0.00   1   90.00     0    0    0   110 2400.0  1   1    8    0   0.000    0.000    0.000  1
 13   1    1  1 0 0    12  16    79  576  576     0.00000   5.77998 1.33146e-003    21    37   0.31   4.01   0.00   -4.98    3.54   81.92  1.100 -0.550 0 2 0 2  0.417  0.417 331.30    0.00     0.00    0.00   1   90.00     0    0    0   110 2400.0  1   1    8    0   0.000    0.000    0.000  1
 14   1    1  1 0 0    13  16    79  576  576     0.00000   5.77998 1.33146e-003    23    40   0.31   4.01   0.00   -5.02    3.54   81.37  1.100 -0.550 0 2 0 2  0.417  0.417 331.30    0.00     0.00    0.00   1   90.00     0    0    0   110 2400.0  1   1    8    0   0.000    0.000    0.000  1
 15   1    1  1 0 0    14  16    79  576  576     0.00000   5.77998 1.33146e-003    24    42   0.31   4.01   0.00   -5.06    3.54   80.82  1.100 -0.550 0 2 0 2  0.417  0.417 331.30    0.00     0.00    0.00   1   90.00     0    0    0   110 2400.0  1   1    8    0   0.000    0.000    0.000  1
 16   1    1  1 0 0    15  16    79  576  576     0.00000   5.77998 1.33146e-003    26    45   0.31   4.01   0.00   -5.10    3.55   80.27  1.100 -0.550 0 2 0 2  0.417  0.417 331.30    0.00     0.00    0.00   1   90.00     0    0    0   110 2400.0  1   1    8    0   0.000    0.000    0.000  1
 17   1    1  1 0 0    16  16    79  576  576     0.00000   5.77998 1.33146e-003    29    50   0.31   4.01   0.00   -5.14    3.55   79.73  1.100 -0.550 0 2 0 2  0.417  0.417 331.30    0.00     0.00    0.00   1   90.00     0    0    0   110 2400.0  1   1    8    0   0.000    0.000    0.000  1
 18   1    1  1 0 0    17  16    79  576  576     0.00000   5.77998 1.33146e-003    35    60   0.31   4.01   0.00   -5.18    3.55   79.18  1.100 -0.550 0 2 0 2  0.417  0.417 331.30    0.00     0.00    0.00   1   90.00     0    0    0   110 2400.0  1   1    8    0   0.000    0.000    0.000  1
 19   1    1  1 0 0    18  16    79  576  576     0.00000   5.77998 1.33146e-003    39    67   0.31   4.01   0.00   -5.21    3.55   78.63  1.100 -0.550 0 2 0 2  0.417  0.417 331.30    0.00     0.00    0.00   1   90.00     0    0    0   110 2400.0  1   1    8    0   0.000    0.000    0.000  1
 20   1    1  1 0 0    19  16    79  576  576     0.00000   5.77998 1.33146e-003    70   122   0.31   4.01   0.00   -5.25    3.56   78.08  1.100 -0.550 0 2 0 2  0.417  0.417 331.30    0.00     0.00    0.00   1   90.00     0    0    0   110 2400.0  1   1    8    0   0.000    0.000    0.000  1
 21   1    1  1 0 0    20  16    79  576  576     0.00000   5.77998 1.33146e-003   179   311   0.31   4.01   0.00   -5.29    3.56   77.53  1.100 -0.550 0 2 0 2  0.417  0.417 331.30    0.00     0.00    0.00   1   90.00     0    0    0   110 2400.0  1   1    8    0   0.000    0.000    0.000  1
 22   1    1  1 0 0    21  16    79  576  576     0.00000   5.77998 1.33146e-003   258   449   0.31   4.01   0.00   -5.33    3.56   76.98  1.100 -0.550 0 2 0 2  0.417  0.417 331.30    0.00     0.00    0.00   1   90.00     0    0    0   110 2400.0  1   1    8    0   0.000    0.000    0.000  1
 23   1    1  1 0 0    22  16    79  576  576     0.00000   5.77998 1.33146e-003   284   494   0.31   4.01   0.00   -5.37    3.57   76.43  1.100 -0.550 0 2 0 2  0.417  0.417 331.30    0.00     0.00    0.00   1   90.00     0    0    0   110 2400.0  1   1    8    0   0.000    0.000    0.000  1
 24   1    1  1 0 0    23  16    79  576  576     0.00000   5.77998 1.33146e-003   350   609   0.31   4.01   0.00   -5.41    3.57   75.89  1.100 -0.550 0 2 0 2  0.417  0.417 331.30    0.00     0.00    0.00   1   90.00     0    0    0   110 2400.0  1   1    8    0   0.000    0.000    0.000  1
 25   1    1  1 0 0    24  16    79  576  576     0.00000   5.77998 1.33146e-003   397   690   0.31   4.01   0.00   -5.44    3.57   75.34  1.100 -0.550 0 2 0 2  0.417  0.417 331.30    0.00     0.00    0.00   1   90.00     0    0    0   110 2400.0  1   1    8    0   0.000    0.000    0.000  1
 26   1    1  1 0 0    25  16    79  576  576     0.00000   5.77998 1.33146e-003   384   668   0.31   4.01   0.00   -5.48    3.58   74.79  1.100 -0.550 0 2 0 2  0.417  0.417 331.30    0.00     0.00    0.00   1   90.00     0    0    0   110 2400.0  1   1    8    0   0.000    0.000    0.000  1
 27   1    1  1 0 0    26  16    79  576  576     0.00000   5.77998 1.33146e-003   341   593   0.31   4.01   0.00   -5.52    3.58   74.24  1.100 -0.550 0 2 0 2  0.417  0.417 331.30    0.00     0.00    0.00   1   90.00     0    0    0   110 2400.0  1   1    8    0   0.000    0.000    0.000  1
 28   1    1  1 0 0    27  16    79  576  576     0.00000   5.77998 1.33146e-003   311   540   0.31   4.01   0.00   -5.56    3.58   73.69  1.100 -0.550 0 2 0 2  0.417  0.417 331.30    0.00     0.00    0.00   1   90.00     0    0    0   110 2400.0  1   1    8    0   0.000    0.000    0.000  1
 29   1    1  1 0 0    28  16    79  576  576     0.00000   5.77998 1.33146e-003   296   514   0.31   4.01   0.00   -5.60    3.58   73.14  1.100 -0.550 0 2 0 2  0.417  0.417 331.30    0.00     0.00    0.00   1   90.00     0    0    0   110 2400.0  1   1    8    0   0.000    0.000    0.000  1
 30   1    1  1 0 0    29  16    79  576  576     0.00000   5.77998 1.33146e-003   314   547   0.31   4.01   0.00   -5.64    3.59   72.59  1.100 -0.550 0 2 0 2  0.417  0.417 331.30    0.00     0.00    0.00   1   90.00     0    0    0   110 2400.0  1   1    8    0   0.000    0.000    0.000  1
 31   1    1  1 0 0    30  16    79  576  576     0.00000   5.77998 1.33146e-003   370   642   0.31   4.01   0.00   -5.68    3.59   72.05  1.100 -0.550 0 2 0 2  0.417  0.417 331.30    0.00     0.00    0.00   1   90.00     0    0    0   110 2400.0  1   1    8    0   0.000    0.000    0.000  1
 32   1    1  1 0 0    31  16    79  576  576     0.00000   5.77998 1.33146e-003   446   775   0.31   4.01   0.00   -5.71    3.59   71.50  1.100 -0.550 0 2 0 2  0.417  0.417 331.30    0.00     0.00    0.00   1   90.00     0    0    0   110 2400.0  1   1    8    0   0.000    0.000    0.000  1
 33   1    1  1 0 0    32  16    79  576  576     0.00000   5.77998 1.33146e-003   502   872   0.31   4.01   0.00   -5.75    3.60   70.95  1.100 -0.550 0 2 0 2  0.417  0.417 331.30    0.00     0.00    0.00   1   90.00     0    0    0   110 2400.0  1   1    8    0   0.000    0.000    0.000  1
 34   1    1  1 0 0    33  16    79  576  576     0.00000   5.77998 1.33146e-003   533   926   0.31   4.01   0.00   -5.79    3.60   70.40  1.100 -0.550 0 2 0 2  0.417  0.417 331.30    0.00     0.00    0.00   1   90.00     0    0    0   110 2400.0  1   1    8    0   0.000    0.000    0.000  1
 35   1    1  1 0 0    34  16    79  576  576     0.00000   5.77998 1.33146e-003   556   966   0.31   4.01   0.00   -5.83    3.60   69.85  1.100 -0.550 0 2 0 2  0.417  0.417 331.30    0.00     0.00    0.00   1   90.00     0    0    0   110 2400.0  1   1    8    0   0.000    0.000    0.000  1
 36   1    1  1 0 0    35  16    79  576  576     0.00000   5.77998 1.33146e-003   637  1108   0.31   4.01   0.00   -5.87    3.61   69.30  1.100 -0.550 0 2 0 2  0.417  0.417 331.30    0.00     0.00    0.00   1   90.00     0    0    0   110 2400.0  1   1    8    0   0.000    0.000    0.000  1
 37   1    1  1 0 0    36  16    79  576  576     0.00000   5.77998 1.33146e-003   714  1241   0.31   4.01   0.00   -5.91    3.61   68.75  1.100 -0.550 0 2 0 2  0.417  0.417 331.30    0.00     0.00    0.00   1   90.00     0    0    0   110 2400.0  1   1    8    0   0.000    0.000    0.000  1
 38   1    1  1 0 0    37  16    79  576  576     0.00000   5.77998 1.33146e-003   802  1394   0.31   4.01   0.00   -5.94    3.61   68.20  1.100 -0.550 0 2 0 2  0.417  0.417 331.30    0.00     0.00    0.00   1   90.00     0    0    0   110 2400.0  1   1    8    0   0.000    0.000    0.000  1
 39   1    1  1 0 0    38  16    79  576  576     0.00000   5.77998 1.33146e-003   851  1480   0.31   4.01   0.00   -5.98    3.61   67.66  1.100 -0.550 0 2 0 2  0.417  0.417 331.30    0.00     0.00    0.00   1   90.00     0    0    0   110 2400.0  1   1    8    0   0.000    0.000    0.000  1
 40   1    1  1 0 0    39  16    79  576  576     0.00000   5.77998 1.33146e-003   883  1534   0.31   4.01   0.00   -6.02    3.62   67.11  1.100 -0.550 0 2 0 2  0.417  0.417 331.30    0.00     0.00    0.00   1   90.00     0    0    0   110 2400.0  1   1    8    0   0.000    0.000    0.000  1
 41   1    1  1 0 0    40  16    79  576  576     0.00000   5.77998 1.33146e-003   875  1521   0.31   4.01   0.00   -6.06    3.62   66.56  1.100 -0.550 0 2 0 2  0.417  0.417 331.30    0.00     0.00    0.00   1   90.00     0    0    0   110 2400.0  1   1    8    0   0.000    0.000    0.000  1
 42   1    1  1 0 0    41  16    79  576  576     0.00000   5.77998 1.33146e-003   880  1529   0.31   4.01   0.00   -6.10    3.62   66.01  1.100 -0.550 0 2 0 2  0.417  0.417 331.30    0.00     0.00    0.00   1   90.00     0    0    0   110 2400.0  1   1    8    0   0.000    0.000    0.000  1
 43   1    1  1 0 0    42  16    79  576  576     0.00000   5.77998 1.33146e-003   844  1467   0.31   4.01   0.00   -6.14    3.63   65.46  1.100 -0.550 0 2 0 2  0.417  0.417 331.30    0.00     0.00    0.00   1   90.00     0    0    0   110 2400.0  1   1    8    0   0.000    0.000    0.000  1
 44   1    1  1 0 0    43  16    79  576  576     0.00000   5.77998 1.33146e-003   824  1433   0.31   4.01   0.00   -6.18    3.63   64.91  1.100 -0.550 0 2 0 2  0.417  0.417 331.30    0.00     0.00    0.00   1   90.00     0    0    0   110 2400.0  1   1    8    0   0.000    0.000    0.000  1
 45   1    1  1 0 0    44  16    79  576  576     0.00000   5.77998 1.33146e-003   859  1493   0.31   4.01   0.00   -6.21    3.63   64.36  1.100 -0.550 0 2 0 2  0.417  0.417 331.30    0.00     0.00    0.00   1   90.00     0    0    0   110 2400.0  1   1    8    0   0.000    0.000    0.000  1
 46   1    1  1 0 0    45  16    79  576  576     0.00000   5.77998 1.33146e-003   895  1556   0.31   4.01   0.00   -6.25    3.64   63.82  1.100 -0.550 0 2 0 2  0.417  0.417 331.30    0.00     0.00    0.00   1   90.00     0    0    0   110 2400.0  1   1    8    0   0.000    0.000    0.000  1
 47   1    1  1 0 0    46  16    79  576  576     0.00000   5.77998 1.33146e-003   960  1668   0.31   4.01   0.00   -6.29    3.64   63.27  1.100 -0.550 0 2 0 2  0.417  0.417 331.30    0.00     0.00    0.00   1   90.00     0    0    0   110 2400.0  1   1    8    0   0.000    0.000    0.000  1
 48   1    1  1 0 0    47  16    79  576  576     0.00000   5.77998 1.33146e-003  1041  1810   0.31   4.01   0.00   -6.33    3.64   62.72  1.100 -0.550 0 2 0 2  0.417  0.417 331.30    0.00     0.00    0.00   1   90.00     0    0    0   110 2400.0  1   1    8    0   0.000    0.000    0.000  1
 49   1    1  1 0 0    48  16    79  576  576     0.00000   5.77998 1.33146e-003  1119  1944   0.31   4.01   0.00   -6.37    3.64   62.17  1.100 -0.550 0 2 0 2  0.417  0.417 331.30    0.00     0.00    0.00   1   90.00     0    0    0   110 2400.0  1   1    8    0   0.000    0.000    0.000  1
 50   1    1  1 0 0    49  16    79  576  576     0.00000   5.77998 1.33146e-003  1166  2027   0.31   4.01   0.00   -6.41    3.65   61.62  1.100 -0.550 0 2 0 2  0.417  0.417 331.30    0.00     0.00    0.00   1   90.00     0    0    0   110 2400.0  1   1    8    0   0.000    0.000    0.000  1
 51   1    1  1 0 0    50  16    79  576  576     0.00000   5.77998 1.33146e-003  1182  2054   0.31   4.01   0.00   -6.44    3.65   61.07  1.100 -0.550 0 2 0 2  0.417  0.417 331.30    0.00     0.00    0.00   1   90.00     0    0    0   110 2400.0  1   1    8    0   0.000    0.000    0.000  1
 52   1    1  1 0 0    51  16    79  576  576     0.00000   5.77998 1.33146e-003  1210  2103   0.31   4.01   0.00   -6.48    3.65   60.52  1.100 -0.550 0 2 0 2  0.417  0.417 331.30    0.00     0.00    0.00   1   90.00     0    0    0   110 2400.0  1   1    8    0   0.000    0.000    0.000  1
 53   1    1  1 0 0    52  16    79  576  576     0.00000   5.77998 1.33146e-003  1242  2158   0.31   4.01   0.00   -6.52    3.66   59.98  1.100 -0.550 0 2 0 2  0.417  0.417 331.30    0.00     0.00    0.00   1   90.00     0    0    0   110 2400.0  1   1    8    0   0.000    0.000    0.000  1
 54   1    1  1 0 0    53  16    79  576  576     0.00000   5.77998 1.33146e-003  1256  2184   0.31   4.01   0.00   -6.56    3.66   59.43  1.100 -0.550 0 2 0 2  0.417  0.417 331.30    0.00     0.00    0.00   1   90.00     0    0    0   110 2400.0  1   1    8    0   0.000    0.000    0.000  1
 55   1    1  1 0 0    54  16    79  576  576     0.00000   5.77998 1.33146e-003  1260  2190   0.31   4.01   0.00   -6.60    3.66   58.88  1.100 -0.550 0 2 0 2  0.417  0.417 331.30    0.00     0.00    0.00   1   90.00     0    0    0   110 2400.0  1   1    8    0   0.000    0.000    0.000  1
 56   1    1  1 0 0    55  16    79  576  576     0.00000   5.77998 1.33146e-003  1273  2213   0.31   4.01   0.00   -6.64    3.67   58.33  1.100 -0.550 0 2 0 2  0.417  0.417 331.30    0.00     0.00    0.00   1   90.00     0    0    0   110 2400.0  1   1    8    0   0.000    0.000    0.000  1
 57   1    1  1 0 0    56  16    79  576  576     0.00000   5.77998 1.33146e-003  1301  2261   0.31   4.01   0.00   -6.67    3.67   57.78  1.100 -0.550 0 2 0 2  0.417  0.417 331.30    0.00     0.00    0.00   1   90.00     0    0    0   110 2400.0  1   1    8    0   0.000    0.000    0.000  1
 58   1    1  1 0 0    57  16    79  576  576     0.00000   5.77998 1.33146e-003  1302  2264   0.31   4.01   0.00   -6.71    3.67   57.23  1.100 -0.550 0 2 0 2  0.417  0.417 331.30    0.00     0.00    0.00   1   90.00     0    0    0   110 2400.0  1   1    8    0   0.000    0.000    0.000  1
 59   1    1  1 0 0    58  16    79  576  576     0.00000   5.77998 1.33146e-003  1308  2274   0.31   4.01   0.00   -6.75    3.68   56.68  1.100 -0.550 0 2 0 2  0.417  0.417 331.30    0.00     0.00    0.00   1   90.00     0    0    0   110 2400.0  1   1    8    0   0.000    0.000    0.000  1
 60   1    1  1 0 0    59  16    79  576  576     0.00000   5.77998 1.33146e-003  1317  2289   0.31   4.01   0.00   -6.79    3.68   56.13  1.100 -0.550 0 2 0 2  0.417  0.417 331.30    0.00     0.00    0.00   1   90.00     0    0    0   110 2400.0  1   1    8    0   0.000    0.000    0.000  1
 61   1    1  1 0 0    60  16    79  576  576     0.00000   5.77998 1.33146e-003  1312  2282   0.31   4.01   0.00   -6.83    3.68   55.59  1.100 -0.550 0 2 0 2  0.417  0.417 331.30    0.00     0.00    0.00   1   90.00     0    0    0   110 2400.0  1   1    8    0   0.000    0.000    0.000  1
 62   1    1  1 0 0    61  16    79  576  576     0.00000   5.77998 1.33146e-003  1308  2275   0.31   4.01   0.00   -6.87    3.68   55.04  1.100 -0.550 0 2 0 2  0.417  0.417 331.30    0.00     0.00    0.00   1   90.00     0    0    0   110 2400.0  1   1    8    0   0.000    0.000    0.000  1
 63   1    1  1 0 0    62  16    79  576  576     0.00000   5.77998 1.33146e-003  1325  2303   0.31   4.01   0.00   -6.91    3.69   54.49  1.100 -0.550 0 2 0 2  0.417  0.417 331.30    0.00     0.00    0.00   1   90.00     0    0    0   110 2400.0  1   1    8    0   0.000    0.000    0.000  1
 64   1    1  1 0 0    63  16    79  576  576     0.00000   5.77998 1.33146e-003  1313  2283   0.31   4.01   0.00   -6.94    3.69   53.94  1.100 -0.550 0 2 0 2  0.417  0.417 331.30    0.00     0.00    0.00   1   90.00     0    0    0   110 2400.0  1   1    8    0   0.000    0.000    0.000  1
 65   1    1  1 0 0    64  16    79  576  576     0.00000   5.77998 1.33146e-003  1321  2296   0.31   4.01   0.00   -6.98    3.69   53.39  1.100 -0.550 0 2 0 2  0.417  0.417 331.30    0.00     0.00    0.00   1   90.00     0    0    0   110 2400.0  1   1    8    0   0.000    0.000    0.000  1
 66   1    1  1 0 0    65  16    79  576  576     0.00000   5.77998 1.33146e-003  1331  2314   0.31   4.01   0.00   -7.02    3.70   52.84  1.100 -0.550 0 2 0 2  0.417  0.417 331.30    0.00     0.00    0.00   1   90.00     0    0    0   110 2400.0  1   1    8    0   0.000    0.000    0.000  1
 67   1    1  1 0 0    66  16    79  576  576     0.00000   5.77998 1.33146e-003  1333  2317   0.31   4.01   0.00   -7.06    3.70   52.29  1.100 -0.550 0 2 0 2  0.417  0.417 331.30    0.00     0.00    0.00   1   90.00     0    0    0   110 2400.0  1   1    8    0   0.000    0.000    0.000  1
 68   1    1  1 0 0    67  16    79  576  576     0.00000   5.77998 1.33146e-003  1332  2315   0.31   4.01   0.00   -7.10    3.70   51.75  1.100 -0.550 0 2 0 2  0.417  0.417 331.30    0.00     0.00    0.00   1   90.00     0    0    0   110 2400.0  1   1    8    0   0.000    0.000    0.000  1
 69   1    1  1 0 0    68  16    79  576  576     0.00000   5.77998 1.33146e-003  1330  2313   0.31   4.01   0.00   -7.14    3.71   51.20  1.100 -0.550 0 2 0 2  0.417  0.417 331.30    0.00     0.00    0.00   1   90.00     0    0    0   110 2400.0  1   1    8    0   0.000    0.000    0.000  1
 70   1    1  1 0 0    69  16    79  576  576     0.00000   5.77998 1.33146e-003  1336  2323   0.31   4.01   0.00   -7.17    3.71   50.65  1.100 -0.550 0 2 0 2  0.417  0.417 331.30    0.00     0.00    0.00   1   90.00     0    0    0   110 2400.0  1   1    8    0   0.000    0.000    0.000  1
 71   1    1  1 0 0    70  16    79  576  576     0.00000   5.77998 1.33146e-003  1328  2308   0.31   4.01   0.00   -7.21    3.71   50.10  1.100 -0.550 0 2 0 2  0.417  0.417 331.30    0.00     0.00    0.00   1   90.00     0    0    0   110 2400.0  1   1    8    0   0.000    0.000    0.000  1
 72   1    1  1 0 0    71  16    79  576  576     0.00000   5.77998 1.33146e-003  1319  2292   0.31   4.01   0.00   -7.25    3.71   49.55  1.100 -0.550 0 2 0 2  0.417  0.417 331.30    0.00     0.00    0.00   1   90.00     0    0    0   110 2400.0  1   1    8    0   0.000    0.000    0.000  1
 73   1    1  1 0 0    72  16    79  576  576     0.00000   5.77998 1.33146e-003  1337  2324   0.31   4.01   0.00   -7.29    3.72   49.00  1.100 -0.550 0 2 0 2  0.417  0.417 331.30    0.00     0.00    0.00   1   90.00     0    0    0   110 2400.0  1   1    8    0   0.000    0.000    0.000  1
 74   1    1  1 0 0    73  16    79  576  576     0.00000   5.77998 1.33146e-003  1345  2338   0.31   4.01   0.00   -7.33    3.72   48.45  1.100 -0.550 0 2 0 2  0.417  0.417 331.30    0.00     0.00    0.00   1   90.00     0    0    0   110 2400.0  1   1    8    0   0.000    0.000    0.000  1
 75   1    1  1 0 0    74  16    79  576  576     0.00000   5.77998 1.33146e-003  1339  2327   0.31   4.01   0.00   -7.37    3.72   47.90  1.100 -0.550 0 2 0 2  0.417  0.417 331.30    0.00     0.00    0.00   1   90.00     0    0    0   110 2400.0  1   1    8    0   0.000    0.000    0.000  1
 76   1    1  1 0 0    75  16    79  576  576     0.00000   5.77998 1.33146e-003  1328  2308   0.31   4.01   0.00   -7.41    3.73   47.36  1.100 -0.550 0 2 0 2  0.417  0.417 331.30    0.00     0.00    0.00   1   90.00     0    0    0   110 2400.0  1   1    8    0   0.000    0.000    0.000  1
 77   1    1  1 0 0    76  16    79  576  576     0.00000   5.77998 1.33146e-003  1339  2328   0.31   4.01   0.00   -7.44    3.73   46.81  1.100 -0.550 0 2 0 2  0.417  0.417 331.30    0.00     0.00    0.00   1   90.00     0    0    0   110 2400.0  1   1    8    0   0.000    0.000    0.000  1
 78   1    1  1 0 0    77  16    79  576  576     0.00000   5.77998 1.33146e-003  1339  2328   0.31   4.01   0.00   -7.48    3.73   46.26  1.100 -0.550 0 2 0 2  0.417  0.417 331.30    0.00     0.00    0.00   1   90.00     0    0    0   110 2400.0  1   1    8    0   0.000    0.000    0.000  1
 79   1    1  1 0 0    78  16    79  576  576     0.00000   5.77998 1.33146e-003  1333  2318   0.31   4.01   0.00   -7.52    3.74   45.71  1.100 -0.550 0 2 0 2  0.417  0.417 331.30    0.00     0.00    0.00   1   90.00     0    0    0   110 2400.0  1   1    8    0   0.000    0.000    0.000  1
 80   1    1  1 0 0    79  16    79  576  576     0.00000   5.77998 1.33146e-003  1326  2304   0.31   4.01   0.00   -7.56    3.74   45.16  1.100 -0.550 0 2 0 2  0.417  0.417 331.30    0.00     0.00    0.00   1   90.00     0    0    0   110 2400.0  1   1    8    0   0.000    0.000    0.000  1
 81   1    1  1 0 0    80  16    79  576  576     0.00000   5.77998 1.33146e-003  1324  2302   0.31   4.01   0.00   -7.60    3.74   44.61  1.100 -0.550 0 2 0 2  0.417  0.417 331.30    0.00     0.00    0.00   1   90.00     0    0    0   110 2400.0  1   1    8    0   0.000    0.000    0.000  1
 82   1    1  1 0 0    81  16    79  576  576     0.00000   5.77998 1.33146e-003  1320  2294   0.31   4.01   0.00   -7.64    3.74   44.06  1.100 -0.550 0 2 0 2  0.417  0.417 331.30    0.00     0.00    0.00   1   90.00     0    0    0   110 2400.0  1   1    8    0   0.000    0.000    0.000  1
 83   1    1  1 0 0    82  16    79  576  576     0.00000   5.77998 1.33146e-003  1322  2298   0.31   4.01   0.00   -7.67    3.75   43.52  1.100 -0.550 0 2 0 2  0.417  0.417 331.30    0.00     0.00    0.00   1   90.00     0    0    0   110 2400.0  1   1    8    0   0.000    0.000    0.000  1
 84   1    1  1 0 0    83  16    79  576  576     0.00000   5.77998 1.33146e-003  1319  2292   0.31   4.01   0.00   -7.71    3.75   42.97  1.100 -0.550 0 2 0 2  0.417  0.417 331.30    0.00     0.00    0.00   1   90.00     0    0    0   110 2400.0  1   1    8    0   0.000    0.000    0.000  1
