# === DATA DESCRIPTION FILE ======================================================
#
# CAUTION - Investigational device.
# Limited by Federal Law to investigational use.
#
#
# CLINICAL TRYOUT             Research image export tool     V4.2
#
# === GENERAL INFORMATION ========================================================
#
.    Protocol name                      :   WIP DTIHR2.2 SENSE
.    Series Type                        :   Image   MRSERIES
.    Acquisition nr                     :   12
.    Reconstruction nr                  :   1
.    Scan Duration [sec]                :   251
.    Max. number of cardiac phases      :   1
.    Max. number of echoes              :   1
.    Max. number of slices/locations    :   65
.    Max. number of dynamics            :   1
.    Max. number of mixes               :   1
.    Patient position                   :   Head First Supine
.    Preparation direction              :   Anterior-Posterior
.    Technique                          :   DwiSE
.    Scan resolution  (x, y)            :   96  96
.    Scan mode                          :   MS
.    Repetition time [ms]               :   6280.592  
.    FOV (ap,fh,rl) [mm]                :   212.000  143.000  212.000
.    Water Fat shift [pixels]           :   12.158
.    Angulation midslice(ap,fh,rl)[degr]:   0.315  4.009  0.000
.    Off Centre midslice(ap,fh,rl) [mm] :   -10.790  33.342  -3.021
.    Flow compensation <0=no 1=yes> ?   :   0
.    Presaturation     <0=no 1=yes> ?   :   0
.    Phase encoding velocity [cm/sec]   :   0.000000  0.000000  0.000000
.    MTC               <0=no 1=yes> ?   :   0
.    SPIR              <0=no 1=yes> ?   :   1
.    EPI factor        <0,1=no EPI>     :   41
.    Dynamic scan      <0=no 1=yes> ?   :   0
.    Diffusion         <0=no 1=yes> ?   :   1
.    Diffusion echo time [ms]           :   0.0000
.    Max. number of diffusion values    :   2
.    Max. number of gradient orients    :   33
.    Number of label types   <0=no ASL> :   0
#
# === PIXEL VALUES =============================================================
#  PV = pixel value in REC file, FP = floating point value, DV = displayed value on console
#  RS = rescale slope,           RI = rescale intercept,    SS = scale slope
#  DV = PV * RS + RI             FP = DV / (RS * SS)
#
# === IMAGE INFORMATION DEFINITION =============================================
#  The rest of this file contains ONE line per image, this line contains the following information:
#
#  slice number                             (integer)
#  echo number                              (integer)
#  dynamic scan number                      (integer)
#  cardiac phase number                     (integer)
#  image_type_mr                            (integer)
#  scanning sequence                        (integer)
#  index in REC file (in images)            (integer)
#  image pixel size (in bits)               (integer)
#  scan percentage                          (integer)
#  recon resolution (x y)                   (2*integer)
#  rescale intercept                        (float)
#  rescale slope                            (float)
#  scale slope                              (float)
#  window center                            (integer)
#  window width                             (integer)
#  image angulation (ap,fh,rl in degrees )  (3*float)
#  image offcentre (ap,fh,rl in mm )        (3*float)
#  slice thickness (in mm )                 (float)
#  slice gap (in mm )                       (float)
#  image_display_orientation                (integer)
#  slice orientation ( TRA/SAG/COR )        (integer)
#  fmri_status_indication                   (integer)
#  image_type_ed_es  (end diast/end syst)   (integer)
#  pixel spacing (x,y) (in mm)              (2*float)
#  echo_time                                (float)
#  dyn_scan_begin_time                      (float)
#  trigger_time                             (float)
#  diffusion_b_factor                       (float)
#  number of averages                       (integer)
#  image_flip_angle (in degrees)            (float)
#  cardiac frequency   (bpm)                (integer)
#  minimum RR-interval (in ms)              (integer)
#  maximum RR-interval (in ms)              (integer)
#  TURBO factor  <0=no turbo>               (integer)
#  Inversion delay (in ms)                  (float)
#  diffusion b value number    (imagekey!)  (integer)
#  gradient orientation number (imagekey!)  (integer)
#  contrast type                            (string)
#  diffusion anisotropy type                (string)
#  diffusion (ap, fh, rl)                   (3*float)
#  label type (ASL)            (imagekey!)  (integer)
#
# === IMAGE INFORMATION ==========================================================
#  sl ec  dyn ph ty    idx pix scan% rec size                (re)scale              window        angulation              offcentre        thick   gap   info      spacing     echo     dtime   ttime    diff  avg  flip    freq   RR-int  turbo delay b grad cont anis         diffusion       L.ty

  1   1    1  1 0 1     0  16   100  256  256     0.00000   3.08254 5.57925e-003   283   491   0.31   4.01  -0.00  -10.79  -37.06   -3.41  2.200  0.000 0 1 0 2  0.828  0.828  67.00    0.00     0.00  700.00   1   90.00     0    0    0    41   0.0  2   1    0    0  -0.070    0.005   -0.998  1
  2   1    1  1 0 1     1  16   100  256  256     0.00000   3.08254 5.57925e-003   278   483   0.31   4.01  -0.00  -10.79  -34.86   -3.40  2.200  0.000 0 1 0 2  0.828  0.828  67.00    0.00     0.00  700.00   1   90.00     0    0    0    41   0.0  2   1    0    0  -0.070    0.005   -0.998  1
  3   1    1  1 0 1     2  16   100  256  256     0.00000   3.08254 5.57925e-003   274   476   0.31   4.01  -0.00  -10.79  -32.66   -3.38  2.200  0.000 0 1 0 2  0.828  0.828  67.00    0.00     0.00  700.00   1   90.00     0    0    0    41   0.0  2   1    0    0  -0.070    0.005   -0.998  1
  4   1    1  1 0 1     3  16   100  256  256     0.00000   3.08254 5.57925e-003   339   589   0.31   4.01  -0.00  -10.79  -30.46   -3.37  2.200  0.000 0 1 0 2  0.828  0.828  67.00    0.00     0.00  700.00   1   90.00     0    0    0    41   0.0  2   1    0    0  -0.070    0.005   -0.998  1
  5   1    1  1 0 1     4  16   100  256  256     0.00000   3.08254 5.57925e-003   323   561   0.31   4.01  -0.00  -10.79  -28.26   -3.36  2.200  0.000 0 1 0 2  0.828  0.828  67.00    0.00     0.00  700.00   1   90.00     0    0    0    41   0.0  2   1    0    0  -0.070    0.005   -0.998  1
  6   1    1  1 0 1     5  16   100  256  256     0.00000   3.08254 5.57925e-003   327   568   0.31   4.01  -0.00  -10.79  -26.06   -3.35  2.200  0.000 0 1 0 2  0.828  0.828  67.00    0.00     0.00  700.00   1   90.00     0    0    0    41   0.0  2   1    0    0  -0.070    0.005   -0.998  1
  7   1    1  1 0 1     6  16   100  256  256     0.00000   3.08254 5.57925e-003   383   666   0.31   4.01  -0.00  -10.79  -23.86   -3.34  2.200  0.000 0 1 0 2  0.828  0.828  67.00    0.00     0.00  700.00   1   90.00     0    0    0    41   0.0  2   1    0    0  -0.070    0.005   -0.998  1
  8   1    1  1 0 1     7  16   100  256  256     0.00000   3.08254 5.57925e-003   461   802   0.31   4.01  -0.00  -10.79  -21.66   -3.32  2.200  0.000 0 1 0 2  0.828  0.828  67.00    0.00     0.00  700.00   1   90.00     0    0    0    41   0.0  2   1    0    0  -0.070    0.005   -0.998  1
  9   1    1  1 0 1     8  16   100  256  256     0.00000   3.08254 5.57925e-003   401   697   0.31   4.01  -0.00  -10.79  -19.46   -3.31  2.200  0.000 0 1 0 2  0.828  0.828  67.00    0.00     0.00  700.00   1   90.00     0    0    0    41   0.0  2   1    0    0  -0.070    0.005   -0.998  1
 10   1    1  1 0 1     9  16   100  256  256     0.00000   3.08254 5.57925e-003   392   682   0.31   4.01  -0.00  -10.79  -17.26   -3.30  2.200  0.000 0 1 0 2  0.828  0.828  67.00    0.00     0.00  700.00   1   90.00     0    0    0    41   0.0  2   1    0    0  -0.070    0.005   -0.998  1
 11   1    1  1 0 1    10  16   100  256  256     0.00000   3.08254 5.57925e-003   386   670   0.31   4.01  -0.00  -10.79  -15.06   -3.29  2.200  0.000 0 1 0 2  0.828  0.828  67.00    0.00     0.00  700.00   1   90.00     0    0    0    41   0.0  2   1    0    0  -0.070    0.005   -0.998  1
 12   1    1  1 0 1    11  16   100  256  256     0.00000   3.08254 5.57925e-003   381   662   0.31   4.01  -0.00  -10.79  -12.86   -3.27  2.200  0.000 0 1 0 2  0.828  0.828  67.00    0.00     0.00  700.00   1   90.00     0    0    0    41   0.0  2   1    0    0  -0.070    0.005   -0.998  1
 13   1    1  1 0 1    12  16   100  256  256     0.00000   3.08254 5.57925e-003   408   710   0.31   4.01  -0.00  -10.79  -10.66   -3.26  2.200  0.000 0 1 0 2  0.828  0.828  67.00    0.00     0.00  700.00   1   90.00     0    0    0    41   0.0  2   1    0    0  -0.070    0.005   -0.998  1
 14   1    1  1 0 1    13  16   100  256  256     0.00000   3.08254 5.57925e-003   370   643   0.31   4.01  -0.00  -10.79   -8.46   -3.25  2.200  0.000 0 1 0 2  0.828  0.828  67.00    0.00     0.00  700.00   1   90.00     0    0    0    41   0.0  2   1    0    0  -0.070    0.005   -0.998  1
 15   1    1  1 0 1    14  16   100  256  256     0.00000   3.08254 5.57925e-003   463   805   0.31   4.01  -0.00  -10.79   -6.26   -3.24  2.200  0.000 0 1 0 2  0.828  0.828  67.00    0.00     0.00  700.00   1   90.00     0    0    0    41   0.0  2   1    0    0  -0.070    0.005   -0.998  1
 16   1    1  1 0 1    15  16   100  256  256     0.00000   3.08254 5.57925e-003   515   896   0.31   4.01  -0.00  -10.79   -4.06   -3.23  2.200  0.000 0 1 0 2  0.828  0.828  67.00    0.00     0.00  700.00   1   90.00     0    0    0    41   0.0  2   1    0    0  -0.070    0.005   -0.998  1
 17   1    1  1 0 1    16  16   100  256  256     0.00000   3.08254 5.57925e-003   605  1052   0.31   4.01  -0.00  -10.79   -1.86   -3.21  2.200  0.000 0 1 0 2  0.828  0.828  67.00    0.00     0.00  700.00   1   90.00     0    0    0    41   0.0  2   1    0    0  -0.070    0.005   -0.998  1
 18   1    1  1 0 1    17  16   100  256  256     0.00000   3.08254 5.57925e-003   781  1358   0.31   4.01  -0.00  -10.79    0.34   -3.20  2.200  0.000 0 1 0 2  0.828  0.828  67.00    0.00     0.00  700.00   1   90.00     0    0    0    41   0.0  2   1    0    0  -0.070    0.005   -0.998  1
 19   1    1  1 0 1    18  16   100  256  256     0.00000   3.08254 5.57925e-003   880  1529   0.31   4.01  -0.00  -10.79    2.54   -3.19  2.200  0.000 0 1 0 2  0.828  0.828  67.00    0.00     0.00  700.00   1   90.00     0    0    0    41   0.0  2   1    0    0  -0.070    0.005   -0.998  1
 20   1    1  1 0 1    19  16   100  256  256     0.00000   3.08254 5.57925e-003   808  1404   0.31   4.01  -0.00  -10.79    4.74   -3.18  2.200  0.000 0 1 0 2  0.828  0.828  67.00    0.00     0.00  700.00   1   90.00     0    0    0    41   0.0  2   1    0    0  -0.070    0.005   -0.998  1
 21   1    1  1 0 1    20  16   100  256  256     0.00000   3.08254 5.57925e-003   669  1164   0.31   4.01  -0.00  -10.79    6.94   -3.17  2.200  0.000 0 1 0 2  0.828  0.828  67.00    0.00     0.00  700.00   1   90.00     0    0    0    41   0.0  2   1    0    0  -0.070    0.005   -0.998  1
 22   1    1  1 0 1    21  16   100  256  256     0.00000   3.08254 5.57925e-003   502   873   0.31   4.01  -0.00  -10.79    9.14   -3.15  2.200  0.000 0 1 0 2  0.828  0.828  67.00    0.00     0.00  700.00   1   90.00     0    0    0    41   0.0  2   1    0    0  -0.070    0.005   -0.998  1
 23   1    1  1 0 1    22  16   100  256  256     0.00000   3.08254 5.57925e-003   346   602   0.31   4.01  -0.00  -10.79   11.34   -3.14  2.200  0.000 0 1 0 2  0.828  0.828  67.00    0.00     0.00  700.00   1   90.00     0    0    0    41   0.0  2   1    0    0  -0.070    0.005   -0.998  1
 24   1    1  1 0 1    23  16   100  256  256     0.00000   3.08254 5.57925e-003   318   552   0.31   4.01  -0.00  -10.79   13.54   -3.13  2.200  0.000 0 1 0 2  0.828  0.828  67.00    0.00     0.00  700.00   1   90.00     0    0    0    41   0.0  2   1    0    0  -0.070    0.005   -0.998  1
 25   1    1  1 0 1    24  16   100  256  256     0.00000   3.08254 5.57925e-003   306   532   0.31   4.01  -0.00  -10.79   15.74   -3.12  2.200  0.000 0 1 0 2  0.828  0.828  67.00    0.00     0.00  700.00   1   90.00     0    0    0    41   0.0  2   1    0    0  -0.070    0.005   -0.998  1
 26   1    1  1 0 1    25  16   100  256  256     0.00000   3.08254 5.57925e-003   297   517   0.31   4.01  -0.00  -10.79   17.94   -3.11  2.200  0.000 0 1 0 2  0.828  0.828  67.00    0.00     0.00  700.00   1   90.00     0    0    0    41   0.0  2   1    0    0  -0.070    0.005   -0.998  1
 27   1    1  1 0 1    26  16   100  256  256     0.00000   3.08254 5.57925e-003   286   498   0.31   4.01  -0.00  -10.79   20.14   -3.09  2.200  0.000 0 1 0 2  0.828  0.828  67.00    0.00     0.00  700.00   1   90.00     0    0    0    41   0.0  2   1    0    0  -0.070    0.005   -0.998  1
 28   1    1  1 0 1    27  16   100  256  256     0.00000   3.08254 5.57925e-003   287   498   0.31   4.01  -0.00  -10.79   22.34   -3.08  2.200  0.000 0 1 0 2  0.828  0.828  67.00    0.00     0.00  700.00   1   90.00     0    0    0    41   0.0  2   1    0    0  -0.070    0.005   -0.998  1
 29   1    1  1 0 1    28  16   100  256  256     0.00000   3.08254 5.57925e-003   285   496   0.31   4.01  -0.00  -10.79   24.54   -3.07  2.200  0.000 0 1 0 2  0.828  0.828  67.00    0.00     0.00  700.00   1   90.00     0    0    0    41   0.0  2   1    0    0  -0.070    0.005   -0.998  1
 30   1    1  1 0 1    29  16   100  256  256     0.00000   3.08254 5.57925e-003   282   490   0.31   4.01  -0.00  -10.79   26.74   -3.06  2.200  0.000 0 1 0 2  0.828  0.828  67.00    0.00     0.00  700.00   1   90.00     0    0    0    41   0.0  2   1    0    0  -0.070    0.005   -0.998  1
 31   1    1  1 0 1    30  16   100  256  256     0.00000   3.08254 5.57925e-003   265   460   0.31   4.01  -0.00  -10.79   28.94   -3.05  2.200  0.000 0 1 0 2  0.828  0.828  67.00    0.00     0.00  700.00   1   90.00     0    0    0    41   0.0  2   1    0    0  -0.070    0.005   -0.998  1
 32   1    1  1 0 1    31  16   100  256  256     0.00000   3.08254 5.57925e-003   262   456   0.31   4.01  -0.00  -10.79   31.14   -3.03  2.200  0.000 0 1 0 2  0.828  0.828  67.00    0.00     0.00  700.00   1   90.00     0    0    0    41   0.0  2   1    0    0  -0.070    0.005   -0.998  1
 33   1    1  1 0 1    32  16   100  256  256     0.00000   3.08254 5.57925e-003   271   471   0.31   4.01  -0.00  -10.79   33.34   -3.02  2.200  0.000 0 1 0 2  0.828  0.828  67.00    0.00     0.00  700.00   1   90.00     0    0    0    41   0.0  2   1    0    0  -0.070    0.005   -0.998  1
 34   1    1  1 0 1    33  16   100  256  256     0.00000   3.08254 5.57925e-003   267   464   0.31   4.01  -0.00  -10.79   35.54   -3.01  2.200  0.000 0 1 0 2  0.828  0.828  67.00    0.00     0.00  700.00   1   90.00     0    0    0    41   0.0  2   1    0    0  -0.070    0.005   -0.998  1
 35   1    1  1 0 1    34  16   100  256  256     0.00000   3.08254 5.57925e-003   264   460   0.31   4.01  -0.00  -10.79   37.74   -3.00  2.200  0.000 0 1 0 2  0.828  0.828  67.00    0.00     0.00  700.00   1   90.00     0    0    0    41   0.0  2   1    0    0  -0.070    0.005   -0.998  1
 36   1    1  1 0 1    35  16   100  256  256     0.00000   3.08254 5.57925e-003   267   463   0.31   4.01  -0.00  -10.79   39.94   -2.98  2.200  0.000 0 1 0 2  0.828  0.828  67.00    0.00     0.00  700.00   1   90.00     0    0    0    41   0.0  2   1    0    0  -0.070    0.005   -0.998  1
 37   1    1  1 0 1    36  16   100  256  256     0.00000   3.08254 5.57925e-003   264   459   0.31   4.01  -0.00  -10.79   42.14   -2.97  2.200  0.000 0 1 0 2  0.828  0.828  67.00    0.00     0.00  700.00   1   90.00     0    0    0    41   0.0  2   1    0    0  -0.070    0.005   -0.998  1
 38   1    1  1 0 1    37  16   100  256  256     0.00000   3.08254 5.57925e-003   257   447   0.31   4.01  -0.00  -10.79   44.34   -2.96  2.200  0.000 0 1 0 2  0.828  0.828  67.00    0.00     0.00  700.00   1   90.00     0    0    0    41   0.0  2   1    0    0  -0.070    0.005   -0.998  1
 39   1    1  1 0 1    38  16   100  256  256     0.00000   3.08254 5.57925e-003   266   462   0.31   4.01  -0.00  -10.79   46.54   -2.95  2.200  0.000 0 1 0 2  0.828  0.828  67.00    0.00     0.00  700.00   1   90.00     0    0    0    41   0.0  2   1    0    0  -0.070    0.005   -0.998  1
 40   1    1  1 0 1    39  16   100  256  256     0.00000   3.08254 5.57925e-003   266   462   0.31   4.01  -0.00  -10.79   48.74   -2.94  2.200  0.000 0 1 0 2  0.828  0.828  67.00    0.00     0.00  700.00   1   90.00     0    0    0    41   0.0  2   1    0    0  -0.070    0.005   -0.998  1
 41   1    1  1 0 1    40  16   100  256  256     0.00000   3.08254 5.57925e-003   258   449   0.31   4.01  -0.00  -10.79   50.94   -2.92  2.200  0.000 0 1 0 2  0.828  0.828  67.00    0.00     0.00  700.00   1   90.00     0    0    0    41   0.0  2   1    0    0  -0.070    0.005   -0.998  1
 42   1    1  1 0 1    41  16   100  256  256     0.00000   3.08254 5.57925e-003   254   441   0.31   4.01  -0.00  -10.79   53.14   -2.91  2.200  0.000 0 1 0 2  0.828  0.828  67.00    0.00     0.00  700.00   1   90.00     0    0    0    41   0.0  2   1    0    0  -0.070    0.005   -0.998  1
 43   1    1  1 0 1    42  16   100  256  256     0.00000   3.08254 5.57925e-003   255   443   0.31   4.01  -0.00  -10.79   55.34   -2.90  2.200  0.000 0 1 0 2  0.828  0.828  67.00    0.00     0.00  700.00   1   90.00     0    0    0    41   0.0  2   1    0    0  -0.070    0.005   -0.998  1
 44   1    1  1 0 1    43  16   100  256  256     0.00000   3.08254 5.57925e-003   253   439   0.31   4.01  -0.00  -10.79   57.54   -2.89  2.200  0.000 0 1 0 2  0.828  0.828  67.00    0.00     0.00  700.00   1   90.00     0    0    0    41   0.0  2   1    0    0  -0.070    0.005   -0.998  1
 45   1    1  1 0 1    44  16   100  256  256     0.00000   3.08254 5.57925e-003   250   434   0.31   4.01  -0.00  -10.79   59.74   -2.88  2.200  0.000 0 1 0 2  0.828  0.828  67.00    0.00     0.00  700.00   1   90.00     0    0    0    41   0.0  2   1    0    0  -0.070    0.005   -0.998  1
 46   1    1  1 0 1    45  16   100  256  256     0.00000   3.08254 5.57925e-003   238   414   0.31   4.01  -0.00  -10.79   61.94   -2.86  2.200  0.000 0 1 0 2  0.828  0.828  67.00    0.00     0.00  700.00   1   90.00     0    0    0    41   0.0  2   1    0    0  -0.070    0.005   -0.998  1
 47   1    1  1 0 1    46  16   100  256  256     0.00000   3.08254 5.57925e-003   227   395   0.31   4.01  -0.00  -10.79   64.14   -2.85  2.200  0.000 0 1 0 2  0.828  0.828  67.00    0.00     0.00  700.00   1   90.00     0    0    0    41   0.0  2   1    0    0  -0.070    0.005   -0.998  1
 48   1    1  1 0 1    47  16   100  256  256     0.00000   3.08254 5.57925e-003   219   381   0.31   4.01  -0.00  -10.79   66.34   -2.84  2.200  0.000 0 1 0 2  0.828  0.828  67.00    0.00     0.00  700.00   1   90.00     0    0    0    41   0.0  2   1    0    0  -0.070    0.005   -0.998  1
 49   1    1  1 0 1    48  16   100  256  256     0.00000   3.08254 5.57925e-003   225   391   0.31   4.01  -0.00  -10.79   68.54   -2.83  2.200  0.000 0 1 0 2  0.828  0.828  67.00    0.00     0.00  700.00   1   90.00     0    0    0    41   0.0  2   1    0    0  -0.070    0.005   -0.998  1
 50   1    1  1 0 1    49  16   100  256  256     0.00000   3.08254 5.57925e-003   217   378   0.31   4.01  -0.00  -10.79   70.74   -2.82  2.200  0.000 0 1 0 2  0.828  0.828  67.00    0.00     0.00  700.00   1   90.00     0    0    0    41   0.0  2   1    0    0  -0.070    0.005   -0.998  1
 51   1    1  1 0 1    50  16   100  256  256     0.00000   3.08254 5.57925e-003   213   370   0.31   4.01  -0.00  -10.79   72.94   -2.80  2.200  0.000 0 1 0 2  0.828  0.828  67.00    0.00     0.00  700.00   1   90.00     0    0    0    41   0.0  2   1    0    0  -0.070    0.005   -0.998  1
 52   1    1  1 0 1    51  16   100  256  256     0.00000   3.08254 5.57925e-003   211   367   0.31   4.01  -0.00  -10.79   75.14   -2.79  2.200  0.000 0 1 0 2  0.828  0.828  67.00    0.00     0.00  700.00   1   90.00     0    0    0    41   0.0  2   1    0    0  -0.070    0.005   -0.998  1
 53   1    1  1 0 1    52  16   100  256  256     0.00000   3.08254 5.57925e-003   196   340   0.31   4.01  -0.00  -10.79   77.34   -2.78  2.200  0.000 0 1 0 2  0.828  0.828  67.00    0.00     0.00  700.00   1   90.00     0    0    0    41   0.0  2   1    0    0  -0.070    0.005   -0.998  1
 54   1    1  1 0 1    53  16   100  256  256     0.00000   3.08254 5.57925e-003   180   313   0.31   4.01  -0.00  -10.79   79.54   -2.77  2.200  0.000 0 1 0 2  0.828  0.828  67.00    0.00     0.00  700.00   1   90.00     0    0    0    41   0.0  2   1    0    0  -0.070    0.005   -0.998  1
 55   1    1  1 0 1    54  16   100  256  256     0.00000   3.08254 5.57925e-003   172   299   0.31   4.01  -0.00  -10.79   81.74   -2.76  2.200  0.000 0 1 0 2  0.828  0.828  67.00    0.00     0.00  700.00   1   90.00     0    0    0    41   0.0  2   1    0    0  -0.070    0.005   -0.998  1
 56   1    1  1 0 1    55  16   100  256  256     0.00000   3.08254 5.57925e-003   165   287   0.31   4.01  -0.00  -10.79   83.94   -2.74  2.200  0.000 0 1 0 2  0.828  0.828  67.00    0.00     0.00  700.00   1   90.00     0    0    0    41   0.0  2   1    0    0  -0.070    0.005   -0.998  1
 57   1    1  1 0 1    56  16   100  256  256     0.00000   3.08254 5.57925e-003   161   279   0.31   4.01  -0.00  -10.79   86.14   -2.73  2.200  0.000 0 1 0 2  0.828  0.828  67.00    0.00     0.00  700.00   1   90.00     0    0    0    41   0.0  2   1    0    0  -0.070    0.005   -0.998  1
 58   1    1  1 0 1    57  16   100  256  256     0.00000   3.08254 5.57925e-003   147   255   0.31   4.01  -0.00  -10.79   88.34   -2.72  2.200  0.000 0 1 0 2  0.828  0.828  67.00    0.00     0.00  700.00   1   90.00     0    0    0    41   0.0  2   1    0    0  -0.070    0.005   -0.998  1
 59   1    1  1 0 1    58  16   100  256  256     0.00000   3.08254 5.57925e-003   124   215   0.31   4.01  -0.00  -10.79   90.54   -2.71  2.200  0.000 0 1 0 2  0.828  0.828  67.00    0.00     0.00  700.00   1   90.00     0    0    0    41   0.0  2   1    0    0  -0.070    0.005   -0.998  1
 60   1    1  1 0 1    59  16   100  256  256     0.00000   3.08254 5.57925e-003   105   183   0.31   4.01  -0.00  -10.79   92.74   -2.69  2.200  0.000 0 1 0 2  0.828  0.828  67.00    0.00     0.00  700.00   1   90.00     0    0    0    41   0.0  2   1    0    0  -0.070    0.005   -0.998  1
 61   1    1  1 0 1    60  16   100  256  256     0.00000   3.08254 5.57925e-003    75   131   0.31   4.01  -0.00  -10.79   94.94   -2.68  2.200  0.000 0 1 0 2  0.828  0.828  67.00    0.00     0.00  700.00   1   90.00     0    0    0    41   0.0  2   1    0    0  -0.070    0.005   -0.998  1
 62   1    1  1 0 1    61  16   100  256  256     0.00000   3.08254 5.57925e-003    55    95   0.31   4.01  -0.00  -10.79   97.14   -2.67  2.200  0.000 0 1 0 2  0.828  0.828  67.00    0.00     0.00  700.00   1   90.00     0    0    0    41   0.0  2   1    0    0  -0.070    0.005   -0.998  1
 63   1    1  1 0 1    62  16   100  256  256     0.00000   3.08254 5.57925e-003    58   100   0.31   4.01  -0.00  -10.79   99.34   -2.66  2.200  0.000 0 1 0 2  0.828  0.828  67.00    0.00     0.00  700.00   1   90.00     0    0    0    41   0.0  2   1    0    0  -0.070    0.005   -0.998  1
 64   1    1  1 0 1    63  16   100  256  256     0.00000   3.08254 5.57925e-003    61   106   0.31   4.01  -0.00  -10.79  101.54   -2.65  2.200  0.000 0 1 0 2  0.828  0.828  67.00    0.00     0.00  700.00   1   90.00     0    0    0    41   0.0  2   1    0    0  -0.070    0.005   -0.998  1
 65   1    1  1 0 1    64  16   100  256  256     0.00000   3.08254 5.57925e-003    67   117   0.31   4.01  -0.00  -10.79  103.74   -2.63  2.200  0.000 0 1 0 2  0.828  0.828  67.00    0.00     0.00  700.00   1   90.00     0    0    0    41   0.0  2   1    0    0  -0.070    0.005   -0.998  1
  1   1    1  1 0 1    65  16   100  256  256     0.00000   3.08254 5.57925e-003   271   471   0.31   4.01  -0.00  -10.79  -37.06   -3.41  2.200  0.000 0 1 0 2  0.828  0.828  67.00    0.00     0.00  700.00   1   90.00     0    0    0    41   0.0  2   2    0    0  -0.998   -0.000    0.070  1
  2   1    1  1 0 1    66  16   100  256  256     0.00000   3.08254 5.57925e-003   274   476   0.31   4.01  -0.00  -10.79  -34.86   -3.40  2.200  0.000 0 1 0 2  0.828  0.828  67.00    0.00     0.00  700.00   1   90.00     0    0    0    41   0.0  2   2    0    0  -0.998   -0.000    0.070  1
  3   1    1  1 0 1    67  16   100  256  256     0.00000   3.08254 5.57925e-003   254   442   0.31   4.01  -0.00  -10.79  -32.66   -3.38  2.200  0.000 0 1 0 2  0.828  0.828  67.00    0.00     0.00  700.00   1   90.00     0    0    0    41   0.0  2   2    0    0  -0.998   -0.000    0.070  1
  4   1    1  1 0 1    68  16   100  256  256     0.00000   3.08254 5.57925e-003   315   547   0.31   4.01  -0.00  -10.79  -30.46   -3.37  2.200  0.000 0 1 0 2  0.828  0.828  67.00    0.00     0.00  700.00   1   90.00     0    0    0    41   0.0  2   2    0    0  -0.998   -0.000    0.070  1
  5   1    1  1 0 1    69  16   100  256  256     0.00000   3.08254 5.57925e-003   281   488   0.31   4.01  -0.00  -10.79  -28.26   -3.36  2.200  0.000 0 1 0 2  0.828  0.828  67.00    0.00     0.00  700.00   1   90.00     0    0    0    41   0.0  2   2    0    0  -0.998   -0.000    0.070  1
  6   1    1  1 0 1    70  16   100  256  256     0.00000   3.08254 5.57925e-003   310   539   0.31   4.01  -0.00  -10.79  -26.06   -3.35  2.200  0.000 0 1 0 2  0.828  0.828  67.00    0.00     0.00  700.00   1   90.00     0    0    0    41   0.0  2   2    0    0  -0.998   -0.000    0.070  1
  7   1    1  1 0 1    71  16   100  256  256     0.00000   3.08254 5.57925e-003   375   651   0.31   4.01  -0.00  -10.79  -23.86   -3.34  2.200  0.000 0 1 0 2  0.828  0.828  67.00    0.00     0.00  700.00   1   90.00     0    0    0    41   0.0  2   2    0    0  -0.998   -0.000    0.070  1
  8   1    1  1 0 1    72  16   100  256  256     0.00000   3.08254 5.57925e-003   340   592   0.31   4.01  -0.00  -10.79  -21.66   -3.32  2.200  0.000 0 1 0 2  0.828  0.828  67.00    0.00     0.00  700.00   1   90.00     0    0    0    41   0.0  2   2    0    0  -0.998   -0.000    0.070  1
  9   1    1  1 0 1    73  16   100  256  256     0.00000   3.08254 5.57925e-003   368   639   0.31   4.01  -0.00  -10.79  -19.46   -3.31  2.200  0.000 0 1 0 2  0.828  0.828  67.00    0.00     0.00  700.00   1   90.00     0    0    0    41   0.0  2   2    0    0  -0.998   -0.000    0.070  1
 10   1    1  1 0 1    74  16   100  256  256     0.00000   3.08254 5.57925e-003   396   688   0.31   4.01  -0.00  -10.79  -17.26   -3.30  2.200  0.000 0 1 0 2  0.828  0.828  67.00    0.00     0.00  700.00   1   90.00     0    0    0    41   0.0  2   2    0    0  -0.998   -0.000    0.070  1
 11   1    1  1 0 1    75  16   100  256  256     0.00000   3.08254 5.57925e-003   382   664   0.31   4.01  -0.00  -10.79  -15.06   -3.29  2.200  0.000 0 1 0 2  0.828  0.828  67.00    0.00     0.00  700.00   1   90.00     0    0    0    41   0.0  2   2    0    0  -0.998   -0.000    0.070  1
 12   1    1  1 0 1    76  16   100  256  256     0.00000   3.08254 5.57925e-003   393   683   0.31   4.01  -0.00  -10.79  -12.86   -3.27  2.200  0.000 0 1 0 2  0.828  0.828  67.00    0.00     0.00  700.00   1   90.00     0    0    0    41   0.0  2   2    0    0  -0.998   -0.000    0.070  1
 13   1    1  1 0 1    77  16   100  256  256     0.00000   3.08254 5.57925e-003   424   738   0.31   4.01  -0.00  -10.79  -10.66   -3.26  2.200  0.000 0 1 0 2  0.828  0.828  67.00    0.00     0.00  700.00   1   90.00     0    0    0    41   0.0  2   2    0    0  -0.998   -0.000    0.070  1
 14   1    1  1 0 1    78  16   100  256  256     0.00000   3.08254 5.57925e-003   385   669   0.31   4.01  -0.00  -10.79   -8.46   -3.25  2.200  0.000 0 1 0 2  0.828  0.828  67.00    0.00     0.00  700.00   1   90.00     0    0    0    41   0.0  2   2    0    0  -0.998   -0.000    0.070  1
 15   1    1  1 0 1    79  16   100  256  256     0.00000   3.08254 5.57925e-003   444   772   0.31   4.01  -0.00  -10.79   -6.26   -3.24  2.200  0.000 0 1 0 2  0.828  0.828  67.00    0.00     0.00  700.00   1   90.00     0    0    0    41   0.0  2   2    0    0  -0.998   -0.000    0.070  1
 16   1    1  1 0 1    80  16   100  256  256     0.00000   3.08254 5.57925e-003   503   875   0.31   4.01  -0.00  -10.79   -4.06   -3.23  2.200  0.000 0 1 0 2  0.828  0.828  67.00    0.00     0.00  700.00   1   90.00     0    0    0    41   0.0  2   2    0    0  -0.998   -0.000    0.070  1
 17   1    1  1 0 1    81  16   100  256  256     0.00000   3.08254 5.57925e-003   579  1007   0.31   4.01  -0.00  -10.79   -1.86   -3.21  2.200  0.000 0 1 0 2  0.828  0.828  67.00    0.00     0.00  700.00   1   90.00     0    0    0    41   0.0  2   2    0    0  -0.998   -0.000    0.070  1
 18   1    1  1 0 1    82  16   100  256  256     0.00000   3.08254 5.57925e-003   745  1294   0.31   4.01  -0.00  -10.79    0.34   -3.20  2.200  0.000 0 1 0 2  0.828  0.828  67.00    0.00     0.00  700.00   1   90.00     0    0    0    41   0.0  2   2    0    0  -0.998   -0.000    0.070  1
 19   1    1  1 0 1    83  16   100  256  256     0.00000   3.08254 5.57925e-003   831  1445   0.31   4.01  -0.00  -10.79    2.54   -3.19  2.200  0.000 0 1 0 2  0.828  0.828  67.00    0.00     0.00  700.00   1   90.00     0    0    0    41   0.0  2   2    0    0  -0.998   -0.000    0.070  1
